freq,psd_x,psd_y,psd_z,psd_xyz
0.0,4.402e+02,7.115e+00,5.132e+00,4.524e+02
1.5,2.916e+02,2.272e+01,2.041e+01,3.348e+02
3.1,7.137e+01,2.291e+01,2.115e+01,1.154e+02
4.6,3.601e+02,2.428e+01,2.082e+01,4.052e+02
6.2,1.198e+03,2.438e+01,2.282e+01,1.245e+03
7.7,1.980e+03,2.490e+01,2.210e+01,2.027e+03
9.2,2.827e+03,2.367e+01,2.196e+01,2.873e+03
10.8,3.792e+03,2.435e+01,2.072e+01,3.837e+03
12.3,4.875e+03,2.419e+01,2.126e+01,4.920e+03
13.9,6.191e+03,2.401e+01,2.139e+01,6.237e+03
15.4,7.725e+03,2.386e+01,2.116e+01,7.770e+03
17.0,9.699e+03,2.777e+01,2.303e+01,9.750e+03
18.5,1.274e+04,2.986e+01,2.299e+01,1.279e+04
20.0,1.641e+04,3.187e+01,2.277e+01,1.647e+04
21.6,1.908e+04,3.397e+01,2.452e+01,1.914e+04
23.1,2.133e+04,3.828e+01,2.561e+01,2.139e+04
24.7,2.531e+04,3.927e+01,2.629e+01,2.538e+04
26.2,3.075e+04,4.188e+01,3.404e+01,3.082e+04
27.7,3.723e+04,4.897e+01,4.385e+01,3.732e+04
29.3,4.544e+04,6.426e+01,6.155e+01,4.557e+04
30.8,5.303e+04,9.296e+01,1.050e+02,5.322e+04
32.4,5.124e+04,1.234e+02,1.494e+02,5.151e+04
33.9,4.613e+04,1.353e+02,1.760e+02,4.644e+04
35.5,4.859e+04,1.191e+02,3.023e+02,4.901e+04
37.0,5.655e+04,9.541e+01,4.782e+02,5.712e+04
38.5,6.829e+04,1.054e+02,4.590e+02,6.885e+04
40.1,8.147e+04,1.459e+02,2.964e+02,8.191e+04
41.6,9.960e+04,1.999e+02,1.890e+02,9.998e+04
43.2,1.205e+05,2.472e+02,1.820e+02,1.210e+05
44.7,1.481e+05,2.839e+02,1.802e+02,1.485e+05
46.2,1.921e+05,3.531e+02,1.914e+02,1.927e+05
47.8,2.540e+05,5.153e+02,2.464e+02,2.548e+05
49.3,3.393e+05,7.393e+02,2.928e+02,3.404e+05
50.9,4.883e+05,1.198e+03,2.891e+02,4.898e+05
52.4,7.838e+05,2.158e+03,3.204e+02,7.863e+05
53.9,1.264e+06,4.036e+03,3.922e+02,1.269e+06
55.5,1.996e+06,7.535e+03,5.929e+02,2.005e+06
57.0,2.350e+06,8.926e+03,8.232e+02,2.360e+06
58.6,2.059e+06,7.342e+03,1.332e+03,2.068e+06
60.1,1.620e+06,4.143e+03,2.490e+03,1.627e+06
61.7,1.240e+06,2.394e+03,4.016e+03,1.246e+06
63.2,9.686e+05,3.790e+03,4.813e+03,9.772e+05
64.7,7.680e+05,4.795e+03,3.232e+03,7.760e+05
66.3,5.900e+05,4.641e+03,1.791e+03,5.964e+05
67.8,4.369e+05,3.876e+03,1.364e+03,4.422e+05
69.4,3.318e+05,2.877e+03,1.180e+03,3.359e+05
70.9,2.545e+05,2.494e+03,1.374e+03,2.583e+05
72.4,1.969e+05,3.034e+03,1.610e+03,2.016e+05
74.0,1.558e+05,3.479e+03,1.497e+03,1.608e+05
75.5,1.271e+05,2.535e+03,9.163e+02,1.306e+05
77.1,1.060e+05,2.058e+03,4.718e+02,1.085e+05
78.6,7.746e+04,2.052e+03,2.510e+02,7.976e+04
80.2,5.391e+04,1.903e+03,1.503e+02,5.596e+04
81.7,3.753e+04,1.627e+03,1.585e+02,3.931e+04
83.2,2.543e+04,1.352e+03,2.047e+02,2.699e+04
84.8,1.712e+04,9.941e+02,3.078e+02,1.842e+04
86.3,1.124e+04,6.601e+02,4.406e+02,1.234e+04
87.9,8.401e+03,4.305e+02,6.345e+02,9.466e+03
89.4,1.348e+04,2.430e+02,9.517e+02,1.467e+04
90.9,4.792e+04,1.284e+02,1.538e+03,4.958e+04
92.5,8.995e+04,1.834e+02,2.405e+03,9.254e+04
94.0,8.511e+04,5.278e+02,2.297e+03,8.794e+04
95.6,9.523e+04,1.753e+03,2.294e+03,9.928e+04
97.1,1.153e+05,1.705e+03,2.467e+03,1.194e+05
98.6,1.336e+05,7.871e+02,3.005e+03,1.374e+05
100.2,1.360e+05,6.456e+02,3.433e+03,1.401e+05
101.7,1.284e+05,1.426e+03,3.152e+03,1.330e+05
103.3,1.151e+05,3.053e+03,2.419e+03,1.206e+05
104.8,9.151e+04,3.141e+03,1.625e+03,9.627e+04
106.4,7.532e+04,2.342e+03,1.578e+03,7.924e+04
107.9,7.739e+04,1.798e+03,2.375e+03,8.157e+04
109.4,7.482e+04,1.009e+03,2.726e+03,7.856e+04
111.0,6.241e+04,1.521e+03,2.586e+03,6.652e+04
112.5,4.837e+04,3.978e+03,1.984e+03,5.433e+04
114.1,4.170e+04,6.565e+03,1.289e+03,4.955e+04
115.6,4.390e+04,8.657e+03,1.309e+03,5.387e+04
117.1,4.826e+04,8.542e+03,1.506e+03,5.831e+04
118.7,5.363e+04,9.357e+03,1.691e+03,6.468e+04
120.2,5.782e+04,1.273e+04,2.081e+03,7.263e+04
121.8,6.043e+04,1.543e+04,2.675e+03,7.853e+04
123.3,6.004e+04,1.784e+04,3.399e+03,8.127e+04
124.9,5.879e+04,1.934e+04,3.844e+03,8.197e+04
126.4,5.776e+04,1.978e+04,4.191e+03,8.173e+04
127.9,5.752e+04,2.023e+04,4.735e+03,8.249e+04
129.5,5.959e+04,2.028e+04,5.745e+03,8.562e+04
131.0,6.320e+04,1.926e+04,7.452e+03,8.991e+04
132.6,4.510e+04,1.292e+04,6.035e+03,6.405e+04
134.1,7.977e+03,2.940e+03,1.184e+03,1.210e+04
135.6,1.688e+03,1.242e+03,3.838e+02,3.314e+03
137.2,1.844e+03,1.025e+03,3.985e+02,3.268e+03
138.7,2.144e+03,8.180e+02,4.123e+02,3.375e+03
140.3,2.472e+03,6.189e+02,4.180e+02,3.509e+03
141.8,2.750e+03,4.732e+02,4.127e+02,3.636e+03
143.3,3.037e+03,3.936e+02,3.891e+02,3.820e+03
144.9,3.351e+03,3.517e+02,3.673e+02,4.070e+03
146.4,3.799e+03,3.516e+02,3.569e+02,4.507e+03
148.0,4.546e+03,3.818e+02,3.461e+02,5.274e+03
149.5,6.106e+03,3.921e+02,3.534e+02,6.851e+03
151.1,6.783e+03,3.453e+02,3.700e+02,7.498e+03
152.6,6.494e+03,4.996e+02,3.318e+02,7.325e+03
154.1,5.901e+03,5.031e+02,2.487e+02,6.652e+03
155.7,5.259e+03,4.520e+02,2.334e+02,5.945e+03
157.2,4.795e+03,4.402e+02,2.342e+02,5.470e+03
158.8,4.396e+03,3.735e+02,2.253e+02,4.994e+03
160.3,3.891e+03,3.119e+02,2.390e+02,4.442e+03
161.8,3.364e+03,2.595e+02,2.724e+02,3.896e+03
163.4,2.897e+03,2.862e+02,3.092e+02,3.493e+03
164.9,2.456e+03,2.845e+02,3.734e+02,3.114e+03
166.5,2.149e+03,2.870e+02,5.103e+02,2.947e+03
168.0,2.027e+03,3.230e+02,5.456e+02,2.896e+03
169.6,1.563e+03,2.873e+02,4.336e+02,2.283e+03
171.1,1.008e+03,1.909e+02,2.962e+02,1.495e+03
172.6,8.192e+02,1.103e+02,2.108e+02,1.140e+03
174.2,5.829e+02,7.163e+01,1.628e+02,8.173e+02
175.7,4.581e+02,6.296e+01,1.489e+02,6.699e+02
177.3,3.747e+02,5.554e+01,1.421e+02,5.723e+02
178.8,3.248e+02,5.939e+01,1.670e+02,5.512e+02
180.3,3.340e+02,7.919e+01,1.970e+02,6.102e+02
181.9,3.072e+02,9.278e+01,2.319e+02,6.318e+02
183.4,2.419e+02,1.045e+02,2.725e+02,6.189e+02
185.0,2.217e+02,1.776e+02,3.333e+02,7.326e+02
186.5,2.972e+02,2.837e+02,4.091e+02,9.900e+02
188.1,3.900e+02,2.634e+02,3.833e+02,1.037e+03
189.6,3.019e+02,2.078e+02,3.968e+02,9.064e+02
191.1,3.510e+02,2.280e+02,4.283e+02,1.007e+03
192.7,4.037e+02,2.447e+02,4.483e+02,1.097e+03
194.2,4.730e+02,2.535e+02,4.707e+02,1.197e+03
195.8,5.663e+02,2.846e+02,5.233e+02,1.374e+03
197.3,6.523e+02,3.576e+02,5.709e+02,1.581e+03
198.8,8.498e+02,4.369e+02,6.673e+02,1.954e+03
